Eigenvalues (ε, in Hartree):
E0 = -0.489228
E1 = -0.111120
E2 = 0.096284
E3 = 0.411759
E4 = 0.829649
E5 = 1.342047
E6 = 1.942430
E7 = 2.624346
E8 = 3.381000
E9 = 4.205129
E10 = 5.088985
E11 = 6.024361
E12 = 7.002639
E13 = 8.014859
E14 = 9.051789
E15 = 10.104002
E16 = 11.161963
E17 = 12.216113
E18 = 13.256956
E19 = 14.275150
E20 = 15.261594
E21 = 16.207524
E22 = 17.104600
E23 = 17.945008
E24 = 18.721557
E25 = 19.427802
E26 = 20.058184
E27 = 20.608223
E28 = 21.074812
E29 = 21.456695
E30 = 21.755314
E31 = 21.976817

Radius r, and lowest eigenfunctions f^(k)(r):
r, f0(r), f1(r)
0.300, 0.436908, -0.186590
0.600, 0.650146, -0.264957
0.900, 0.725593, -0.269138
1.200, 0.719818, -0.224874
1.500, 0.669458, -0.151376
1.800, 0.597716, -0.062742
2.100, 0.518838, 0.030912
2.400, 0.441178, 0.122535
2.700, 0.369279, 0.207418
3.000, 0.305282, 0.282622
3.300, 0.249851, 0.346522
3.600, 0.202794, 0.398452
3.900, 0.163455, 0.438428
4.200, 0.130967, 0.466939
4.500, 0.104398, 0.484778
4.800, 0.082848, 0.492922
5.100, 0.065486, 0.492440
5.400, 0.051579, 0.484428
5.700, 0.040496, 0.469958
6.000, 0.031699, 0.450047
6.300, 0.024743, 0.425636
6.600, 0.019259, 0.397578
6.900, 0.014946, 0.366628
7.200, 0.011559, 0.333448
7.500, 0.008902, 0.298601
7.800, 0.006814, 0.262560
8.100, 0.005169, 0.225711
8.400, 0.003864, 0.188362
8.700, 0.002817, 0.150743
9.000, 0.001960, 0.113021
9.300, 0.001236, 0.075299
9.600, 0.000597, 0.037626

Convergence study:
Fixed r_max = 10, varying dr:
dr, ground_state_energy
0.5, -0.472135
0.3, -0.489228
0.2, -0.495097
0.1, -0.498755
0.05, -0.499687
0.02, -0.499949

Fixed dr = 0.3, varying r_max:
r_max, ground_state_energy
5, -0.483890
10, -0.489228
10, -0.489228
15, -0.489229
